Tiempo (s)	ángulo (rad)	Vector velocidad angular (rad/s)	Aceleración angular (rad/s²)	Posición (m)	Vector velocidad (m/s)	Aceleración (m/s²)	Intensidad luminosa (%)
0.100	-0.628	-7.156	-10.472	-0.0150	-0.171	-0.250	0.5
0.150	-0.995	-7.330	-5.236	-0.0237	-0.175	-0.125	0.3
0.200	-1.361	-7.679	-17.453	-0.0325	-0.183	-0.417	0.4
0.250	-1.763	-9.076	-34.907	-0.0421	-0.217	-0.833	0.4
0.300	-2.269	-11.170	-34.907	-0.0542	-0.267	-0.833	0.5
0.350	-2.880	-12.566	-13.963	-0.0687	-0.300	-0.333	0.4
0.400	-3.526	-12.566	3.491	-0.0842	-0.300	0.083	0.5
0.450	-4.136	-12.217	5.236	-0.0987	-0.292	0.125	0.4
0.500	-4.747	-12.043	8.727	-0.1133	-0.288	0.208	0.6
0.550	-5.341	-11.345	8.727	-0.1275	-0.271	0.208	0.5
0.600	-5.882	-11.170	-3.491	-0.1404	-0.267	-0.083	0.5
0.650	-6.458	-11.694	-10.472	-0.1542	-0.279	-0.250	0.5
0.700	-7.051	-12.217	-13.963	-0.1683	-0.292	-0.333	0.6
0.750	-7.679	-13.090	-17.453	-0.1833	-0.312	-0.417	0.5
0.800	-8.360	-13.963	-8.727	-0.1996	-0.333	-0.208	0.5
0.850	-9.076	-13.963	3.491	-0.2167	-0.333	0.083	0.4
0.900	-9.756	-13.614	8.727	-0.2329	-0.325	0.208	0.5
0.950	-10.437	-13.090	6.981	-0.2492	-0.313	0.167	0.4
1.000	-11.065	-12.915	-6.981	-0.2642	-0.308	-0.167	0.5
1.050	-11.729	-13.788	-17.453	-0.2800	-0.329	-0.417	0.3
1.100	-12.444	-14.661	1.776E-13	-0.2971	-0.350	0.000	0.4
1.150	-13.195	-13.788	8.727	-0.3150	-0.329	0.208	0.2
1.200	-13.823	-13.788	-20.944	-0.3300	-0.329	-0.500	0.3
1.250	-14.573	-15.882	-26.180	-0.3479	-0.379	-0.625	0.2
1.300	-15.411	-16.406	-3.491	-0.3679	-0.392	-0.083	0.3
1.350	-16.214	-16.232	-8.727	-0.3871	-0.387	-0.208	0.1
1.400	-17.034	-17.279	-13.963	-0.4067	-0.412	-0.333	0.2
1.450	-17.942	-17.628	-3.491	-0.4283	-0.421	-0.083	0.1
1.500	-18.797	-17.628	-3.491	-0.4487	-0.421	-0.083	0.2
1.550	-19.705	-17.977	1.745	-0.4704	-0.429	0.042	0.1
1.600	-20.595	-17.453	15.708	-0.4917	-0.417	0.375	0.2
1.650	-21.450	-16.406	12.217	-0.5121	-0.392	0.292	0.1
1.700	-22.235	-16.232	-10.472	-0.5308	-0.387	-0.250	0.2
1.750	-23.073	-17.453	-24.435	-0.5508	-0.417	-0.583	0.1
1.800	-23.981	-18.675	-26.180	-0.5725	-0.446	-0.625	0.2
1.850	-24.941	-20.071	-15.708	-0.5954	-0.479	-0.375	0.2
1.900	-25.988	-20.246	10.472	-0.6204	-0.483	0.250	0.3
1.950	-26.965	-19.024	20.944	-0.6437	-0.454	0.500	0.1
2.000	-27.890	-18.151	26.180	-0.6658	-0.433	0.625	0.3
2.050	-28.780	-16.406	36.652	-0.6871	-0.392	0.875	0.2
2.100	-29.531	-14.486	19.199	-0.7050	-0.346	0.458	0.3
2.150	-30.229	-14.486	6.395E-13	-0.7217	-0.346	4.441E-15	0.3
2.200	-30.980	-14.486	-1.745	-0.7396	-0.346	-0.042	0.4
2.250	-31.678	-14.661	-15.708	-0.7562	-0.350	-0.375	0.5
2.300	-32.446	-16.057	-12.217	-0.7746	-0.383	-0.292	2.2
2.350	-33.283	-15.882	-5.236	-0.7946	-0.379	-0.125	3.4
2.400	-34.034	-16.581	-19.199	-0.8125	-0.396	-0.458	0.5
2.450	-34.941	-17.802	-15.708	-0.8342	-0.425	-0.375	0.4
2.500	-35.814	-18.151	-5.236	-0.8550	-0.433	-0.125	0.3
2.550	-36.757	-18.326	12.217	-0.8775	-0.437	0.292	0.3
2.600	-37.647	-16.930	19.199	-0.8987	-0.404	0.458	0.3
2.650	-38.450	-16.406	6.981	-0.9179	-0.392	0.167	0.3
2.700	-39.287	-16.232	5.236	-0.9379	-0.388	0.125	0.5
2.750	-40.073	-15.882	3.491	-0.9567	-0.379	0.083	0.4
2.800	-40.876	-15.882	8.727	-0.9758	-0.379	0.208	0.3
2.850	-41.661	-15.010	8.727	-0.9946	-0.358	0.208	0.4
2.900	-42.377	-15.010	3.491	-1.0117	-0.358	0.083	0.3
2.950	-43.162	-14.661	15.708	-1.0304	-0.350	0.375	0.4
3.000	-43.843	-13.439	20.944	-1.0467	-0.321	0.500	0.4
3.050	-44.506	-12.566	15.708	-1.0625	-0.300	0.375	0.4
3.100	-45.099	-11.868	8.727	-1.0767	-0.283	0.208	0.4
3.150	-45.693	-11.694	3.491	-1.0908	-0.279	0.083	0.6
3.200	-46.269	-11.519	5.236	-1.1046	-0.275	0.125	0.5
3.250	-46.845	-11.170	-3.491	-1.1183	-0.267	-0.083	0.8
3.300	-47.386	-11.868	-19.199	-1.1312	-0.283	-0.458	0.6
3.350	-48.031	-13.090	-17.453	-1.1467	-0.312	-0.417	0.9
3.400	-48.695	-13.614	-8.727	-1.1625	-0.325	-0.208	0.7
3.450	-49.393	-13.963	0.000	-1.1792	-0.333	2.220E-14	1.1
3.500	-50.091	-13.614	6.981	-1.1958	-0.325	0.167	1.0
3.550	-50.754	-13.265	24.435	-1.2117	-0.317	0.583	1.7
3.600	-51.417	-11.170	24.435	-1.2275	-0.267	0.583	1.3
3.650	-51.871	-10.821	-20.944	-1.2383	-0.258	-0.500	2.4
3.700	-52.499	-13.265	-22.689	-1.2533	-0.317	-0.542	1.9
3.750	-53.198	-13.090	22.689	-1.2700	-0.312	0.542	3.8
3.800	-53.808	-10.996	31.416	-1.2846	-0.262	0.750	2.8
3.850	-54.297	-9.948	3.491	-1.2963	-0.238	0.083	6.4
3.900	-54.803	-10.647	-5.236	-1.3083	-0.254	-0.125	5.1
3.950	-55.362	-10.472	12.217	-1.3217	-0.250	0.292	10.9
4.000	-55.851	-9.425	19.199	-1.3333	-0.225	0.458	32.7
4.050	-56.304	-8.552	22.689	-1.3442	-0.204	0.542	98.6
4.100	-56.706	-7.156	20.944	-1.3538	-0.171	0.500	33.8
4.150	-57.020	-6.458	-1.350E-12	-1.3612	-0.154	-1.527E-14	10.4
4.200	-57.352	-7.156	-12.217	-1.3692	-0.171	-0.292	5.1
4.250	-57.735	-7.679	-5.236	-1.3783	-0.183	-0.125	7.0
4.300	-58.119	-7.679	-1.745	-1.3875	-0.183	-0.042	3.8
4.350	-58.503	-7.854	-8.727	-1.3967	-0.187	-0.208	5.3
4.400	-58.905	-8.552	-13.963	-1.4063	-0.204	-0.333	2.8
4.450	-59.359	-9.250	-6.981	-1.4171	-0.221	-0.167	4.0
4.500	-59.830	-9.250	1.745	-1.4283	-0.221	0.042	2.3
4.550	-60.284	-9.076	-3.491	-1.4392	-0.217	-0.083	3.2
4.600	-60.737	-9.599	-8.727	-1.4500	-0.229	-0.208	1.8
4.650	-61.244	-9.948	-3.491	-1.4621	-0.238	-0.083	2.1
4.700	-61.732	-9.948	8.882E-13	-1.4737	-0.238	2.109E-14	1.3
4.750	-62.238	-9.948	1.745	-1.4858	-0.237	0.042	1.7
4.800	-62.727	-9.774	-1.599E-12	-1.4975	-0.233	-4.330E-14	1.0
4.850	-63.216	-9.948	-8.727	-1.5092	-0.238	-0.208	1.4
4.900	-63.722	-10.647	-20.944	-1.5213	-0.254	-0.500	0.9
4.950	-64.280	-12.043	-24.435	-1.5346	-0.287	-0.583	1.1
5.000	-64.926	-13.090	-17.453	-1.5500	-0.312	-0.417	0.8
5.050	-65.589	-13.788	-15.708	-1.5658	-0.329	-0.375	0.9
5.100	-66.305	-14.661	-8.727	-1.5829	-0.350	-0.208	0.6
5.150	-67.056	-14.661	10.472	-1.6008	-0.350	0.250	0.8
5.200	-67.771	-13.614	19.199	-1.6179	-0.325	0.458	0.5
5.250	-68.417	-12.741	17.453	-1.6333	-0.304	0.417	0.5
5.300	-69.045	-11.868	20.944	-1.6483	-0.283	0.500	0.4
5.350	-69.604	-10.647	10.472	-1.6617	-0.254	0.250	0.5
5.400	-70.110	-10.821	-1.421E-12	-1.6737	-0.258	0.000	0.4
5.450	-70.686	-10.647	3.491	-1.6875	-0.254	0.083	0.5
5.500	-71.175	-10.472	-13.963	-1.6992	-0.250	-0.333	0.4
5.550	-71.733	-12.043	-17.453	-1.7125	-0.287	-0.417	0.5
5.600	-72.379	-12.217	13.963	-1.7279	-0.292	0.333	0.4
5.650	-72.955	-10.647	22.689	-1.7417	-0.254	0.542	0.4
5.700	-73.443	-9.948	5.236	-1.7533	-0.238	0.125	0.3
5.750	-73.950	-10.123	-3.491	-1.7654	-0.242	-0.083	1.0
5.800	-74.456	-10.297	-6.981	-1.7775	-0.246	-0.167	1.0
5.850	-74.979	-10.821	-15.708	-1.7900	-0.258	-0.375	0.4
5.900	-75.538	-11.868	-12.217	-1.8033	-0.283	-0.292	0.3
5.950	-76.166	-12.043	3.491	-1.8183	-0.288	0.083	0.3
6.000	-76.742	-11.519	3.491	-1.8321	-0.275	0.083	0.2
6.050	-77.318	-11.694	3.491	-1.8458	-0.279	0.083	0.3
6.100	-77.911	-11.170	24.435	-1.8600	-0.267	0.583	0.3
6.150	-78.435	-9.250	36.652	-1.8725	-0.221	0.875	0.3
6.200	-78.837	-7.505	19.199	-1.8821	-0.179	0.458	0.3
6.250	-79.186	-7.330	-6.981	-1.8904	-0.175	-0.167	0.4
6.300	-79.570	-8.203	-20.944	-1.8996	-0.196	-0.500	0.4
6.350	-80.006	-9.425	-13.963	-1.9100	-0.225	-0.333	0.6
6.400	-80.512	-9.599	-10.472	-1.9221	-0.229	-0.250	1.6
6.450	-80.966	-10.472	-24.435	-1.9329	-0.250	-0.583	9.4
6.500	-81.559	-12.043	-17.453	-1.9471	-0.287	-0.417	5.7
6.550	-82.170	-12.217	1.745	-1.9617	-0.292	0.042	1.4
6.600	-82.781	-11.868	12.217	-1.9762	-0.283	0.292	0.3
6.650	-83.357	-10.996	19.199	-1.9900	-0.263	0.458	0.3
6.700	-83.881	-9.948	15.708	-2.0025	-0.238	0.375	0.2
6.750	-84.352	-9.425	5.236	-2.0137	-0.225	0.125	0.2
6.800	-84.823	-9.425	-1.745	-2.0250	-0.225	-0.042	0.2
6.850	-85.294	-9.599	3.491	-2.0362	-0.229	0.083	0.2
6.900	-85.783	-9.076	12.217	-2.0479	-0.217	0.292	0.2
6.950	-86.202	-8.378	5.236	-2.0579	-0.200	0.125	0.1
7.000	-86.621	-8.552	-5.236	-2.0679	-0.204	-0.125	0.1
7.050	-87.057	-8.901	-12.217	-2.0783	-0.212	-0.292	0.1
7.100	-87.511	-9.774	-22.689	-2.0892	-0.233	-0.542	0.1
7.150	-88.034	-11.170	-13.963	-2.1017	-0.267	-0.333	0.1
7.200	-88.628	-11.170	3.491	-2.1158	-0.267	0.083	0.1
7.250	-89.151	-10.821	9.948E-13	-2.1283	-0.258	6.828E-14	0.1
7.300	-89.710	-11.170	-1.745	-2.1417	-0.267	-0.042	0.1
7.350	-90.268	-10.996	-3.491	-2.1550	-0.263	-0.083	0.1
7.400	-90.809	-11.519	-5.236	-2.1679	-0.275	-0.125	0.1
7.450	-91.420	-11.519	12.217	-2.1825	-0.275	0.292	0.0
7.500	-91.961	-10.297	13.963	-2.1954	-0.246	0.333	0.1
7.550	-92.450	-10.123	6.981	-2.2071	-0.242	0.167	0.1
7.600	-92.974	-9.599	20.944	-2.2196	-0.229	0.500	0.1
7.650	-93.410	-8.029	12.217	-2.2300	-0.192	0.292	0.0
7.700	-93.777	-8.378	-8.727	-2.2387	-0.200	-0.208	0.1
7.750	-94.248	-8.901	-1.745	-2.2500	-0.212	-0.042	0.0
7.800	-94.667	-8.552	-6.981	-2.2600	-0.204	-0.167	0.0
7.850	-95.103	-9.599	-20.944	-2.2704	-0.229	-0.500	0.0
7.900	-95.627	-10.647	-12.217	-2.2829	-0.254	-0.292	0.0
7.950	-96.168	-10.821	-3.491	-2.2958	-0.258	-0.083	0.0
8.000	-96.709	-10.996	-5.236	-2.3087	-0.262	-0.125	0.1
8.050	-97.267	-11.345	5.236	-2.3221	-0.271	0.125	0.1
8.100	-97.843	-10.472	24.435	-2.3358	-0.250	0.583	0.1
8.150	-98.314	-8.901	10.472	-2.3471	-0.212	0.250	0.0
8.200	-98.733	-9.425	-12.217	-2.3571	-0.225	-0.292	0.1
8.250	-99.257	-10.123	-8.727	-2.3696	-0.242	-0.208	0.0
8.300	-99.746	-10.297	-20.944	-2.3812	-0.246	-0.500	0.0
8.350	-100.287	-12.217	-33.161	-2.3942	-0.292	-0.792	0.0
8.400	-100.967	-13.614	-22.689	-2.4104	-0.325	-0.542	0.0
8.450	-101.648	-14.486	-17.453	-2.4267	-0.346	-0.417	0.0
8.500	-102.416	-15.359	-3.491	-2.4450	-0.367	-0.083	0.1
8.550	-103.184	-14.835	-1.745	-2.4633	-0.354	-0.042	0.1
8.600	-103.899	-15.533	-5.236	-2.4804	-0.371	-0.125	0.0
8.650	-104.737	-15.359	6.981	-2.5004	-0.367	0.167	0.0
8.700	-105.435	-14.835	-15.708	-2.5171	-0.354	-0.375	0.0
8.750	-106.221	-16.930	-26.180	-2.5358	-0.404	-0.625	0.0
8.800	-107.128	-17.453	3.491	-2.5575	-0.417	0.083	0.1
8.850	-107.966	-16.581	27.925	-2.5775	-0.396	0.667	0.0
8.900	-108.786	-14.661	36.652	-2.5971	-0.350	0.875	0.0
8.950	-109.432	-12.915	24.435	-2.6125	-0.308	0.583	0.0
9.000	-110.078	-12.217	10.472	-2.6279	-0.292	0.250	0.1
9.050	-110.654	-11.868	8.727	-2.6417	-0.283	0.208	0.0
9.100	-111.265	-11.345	-1.745	-2.6562	-0.271	-0.042	0.0
9.150	-111.788	-12.043	-15.708	-2.6687	-0.287	-0.375	0.0
9.200	-112.469	-12.915	-17.453	-2.6850	-0.308	-0.417	0.0
9.250	-113.080	-13.788	-22.689	-2.6996	-0.329	-0.542	0.0
9.300	-113.848	-15.184	-27.925	-2.7179	-0.363	-0.667	0.0
9.350	-114.598	-16.581	-34.907	-2.7358	-0.396	-0.833	0.0
9.400	-115.506	-18.675	24.435	-2.7575	-0.446	0.583	0.0
9.450	-116.466	-14.137	80.285	-2.7804	-0.338	1.917	0.0
9.500	-116.920	-10.647	26.180	-2.7912	-0.254	0.625	0.1
9.550	-117.530	-11.519	-3.491	-2.8058	-0.275	-0.083	0.1
9.600	-118.072	-10.996	13.963	-2.8187	-0.263	0.333	0.1
9.650	-118.630	-10.123	0.000	-2.8321	-0.242	4.441E-14	0.1
9.700	-119.084	-10.996	-15.708	-2.8429	-0.262	-0.375	0.1
9.750	-119.730	-11.694	-8.727	-2.8583	-0.279	-0.208	0.1
9.800	-120.253	-11.868	-3.491	-2.8708	-0.283	-0.083	0.1
9.850	-120.916	-12.043	1.745	-2.8867	-0.288	0.042	0.1
9.900	-121.457	-11.694	12.217	-2.8996	-0.279	0.292	0.1
9.950	-122.086	-10.821	17.453	-2.9146	-0.258	0.417	0.1
10.000	-122.540	-9.948	15.708	-2.9254	-0.237	0.375	0.1
10.050	-123.081	-9.250	33.161	-2.9383	-0.221	0.792	0.2
10.100	-123.465	-6.632	38.397	-2.9475	-0.158	0.917	0.1
10.150	-123.744	-5.411	-8.727	-2.9542	-0.129	-0.208	0.1
10.200	-124.006	-7.505	-26.180	-2.9604	-0.179	-0.625	0.1
10.250	-124.494	-8.029	6.981	-2.9721	-0.192	0.167	0.2
10.300	-124.808	-6.807	5.236	-2.9796	-0.163	0.125	0.1
10.350	-125.175	-7.505	-12.217	-2.9883	-0.179	-0.292	0.1
10.400	-125.559	-8.029	-20.944	-2.9975	-0.192	-0.500	0.1
10.450	-125.978	-9.599	-17.453	-3.0075	-0.229	-0.417	0.1
10.500	-126.519	-9.774	22.689	-3.0204	-0.233	0.542	0.1
10.550	-126.955	-7.330	-10.472	-3.0308	-0.175	-0.250	0.1
10.600	-127.252	-10.821	-45.379	-3.0379	-0.258	-1.083	0.1
10.650	-128.037	-11.868	36.652	-3.0567	-0.283	0.875	0.2
10.700	-128.439	-7.156	40.143	-3.0662	-0.171	0.958	0.0
10.750	-128.753	-7.854	-17.453	-3.0737	-0.188	-0.417	0.1
10.800	-129.224	-8.901	0.000	-3.0850	-0.212	4.441E-14	0.1
10.850	-129.643	-7.854	38.397	-3.0950	-0.187	0.917	0.1
10.900	-130.010	-5.061	64.577	-3.1037	-0.121	1.542	0.1
10.950	-130.149	-1.396	50.615	-3.1071	-0.033	1.208	0.1
11.000	-130.149	0.000	13.963	-3.1071	0.000	0.333	0.1
11.050	-130.149	0.000	0.000	-3.1071	0.000	0.000	0.1
11.100	-130.149	0.000	0.000	-3.1071	0.000	0.000	0.1
11.150	-130.149	0.000	0.000	-3.1071	0.000	0.000	0.1
11.200	-130.149	0.000	0.000	-3.1071	0.000	0.000	0.1
11.250	-130.149	0.000	1.745	-3.1071	0.000	0.042	0.1
11.300	-130.149	0.175	1.745	-3.1071	0.004	0.042	0.1
11.350	-130.132	0.175	-1.745	-3.1067	0.004	-0.042	0.1
11.400	-130.132	0.000	-1.745	-3.1067	0.000	-0.042	0.1
11.450	-130.132	0.000	0.000	-3.1067	0.000	0.000	0.1
11.500	-130.132	0.000	0.000	-3.1067	0.000	0.000	0.1
11.550	-130.132	0.000	0.000	-3.1067	0.000	0.000	0.1
11.600	-130.132	0.000	0.000	-3.1067	0.000	0.000	0.1
11.650	-130.132	0.000	0.000	-3.1067	0.000	0.000	0.1
11.700	-130.132	0.000	0.000	-3.1067	0.000	0.000	0.1
11.750	-130.132	0.000	0.000	-3.1067	0.000	0.000	0.1
11.800	-130.132	0.000	0.000	-3.1067	0.000	0.000	0.1
11.850	-130.132	0.000	0.000	-3.1067	0.000	0.000	0.1

